"Time","Temperature","T_Setpoint","Heat Flux","HF_Setpoint","duty cycle","control mode","TC11","TC12","TC13","TC14","TC15","TC16","TC17","TC18","TC19","TC20","hours"
0,21.781868,20,0.054421,0,19.348729,1,21.724499,21.702059,21.673835,21.637282,21.582219,21.580368,21.571345,21.558851,21.572502,21.500314,0
1,21.777936,22.475,0.050998,0.125,21.783366,1,21.72126,21.706917,21.674529,21.650932,21.579443,21.584533,21.572502,21.571345,21.572733,21.497769,0.000277777777777778
2,21.803844,24.95,0.056298,0.25,24.369665,1,21.713626,21.695119,21.665276,21.63173,21.569032,21.578517,21.572039,21.561165,21.56371,21.507718,0.000555555555555556
3,21.868148,27.425,0.055083,0.375,27.063013,1,21.725193,21.697432,21.672447,21.646305,21.584764,21.581294,21.572965,21.56533,21.565792,21.496612,0.000833333333333333
4,22.000447,29.9,0.056298,0.5,29.852959,1,21.719409,21.694656,21.675223,21.641909,21.579212,21.585227,21.558851,21.563941,21.564404,21.491521,0.00111111111111111
5,22.182911,32.375,0.055304,0.625,32.706949,1,21.707611,21.686097,21.653014,21.629416,21.560934,21.5688,21.572271,21.552373,21.568106,21.48967,0.00138888888888889
6,22.421296,34.85,0.06226,0.75,35.63953,1,21.727506,21.706917,21.67291,21.64376,21.597258,21.596564,21.581757,21.570651,21.579906,21.507718,0.00166666666666667
7,22.731976,37.325,0.062371,0.875,38.642001,1,21.720335,21.700208,21.666201,21.646768,21.578286,21.580137,21.581062,21.564636,21.567412,21.498463,0.00194444444444444
8,23.074225,39.8,0.057181,1,41.694425,1,21.725424,21.705529,21.671985,21.646536,21.576898,21.581062,21.574584,21.570882,21.576435,21.508181,0.00222222222222222
9,23.485201,42.275,0.058506,1.125,44.834643,1,21.715939,21.699283,21.674529,21.640753,21.574816,21.577361,21.569726,21.567181,21.570188,21.496149,0.0025
10,23.944279,44.75,0.052544,1.25,48.02271,1,21.715245,21.692805,21.669208,21.636126,21.5688,21.573427,21.571808,21.566024,21.556075,21.502859,0.00277777777777778
11,24.473551,47.225,0.054973,1.375,51.276008,1,21.730051,21.70738,21.679619,21.649313,21.585227,21.58569,21.564636,21.571114,21.574584,21.501702,0.00305555555555556
12,25.080294,49.7,0.060825,1.5,54.569157,1,21.717327,21.690723,21.675455,21.632424,21.581294,21.569726,21.570188,21.553067,21.556075,21.502165,0.00333333333333333
13,25.736256,52.175,0.056629,1.625,57.89078,1,21.709693,21.68332,21.659955,21.627103,21.567875,21.569726,21.551679,21.552836,21.557463,21.488051,0.00361111111111111
14,26.428905,54.65,0.056187,1.75,61.265608,1,21.705992,21.684477,21.671985,21.640753,21.571577,21.567181,21.568337,21.557695,21.555612,21.486894,0.00388888888888889
15,27.219857,57.125,0.055635,1.875,64.703788,1,21.720797,21.684246,21.673373,21.644686,21.5688,21.569726,21.568337,21.552836,21.554918,21.494298,0.00416666666666667
16,28.080832,59.6,0.056629,2,68.139953,1,21.704141,21.684246,21.669671,21.635894,21.566718,21.562785,21.561628,21.547746,21.554224,21.480184,0.00444444444444444
17,29.034405,62.075,0.063365,2.125,71.597709,1,21.720797,21.695119,21.68332,21.65232,21.577361,21.575741,21.57042,21.558851,21.560471,21.498926,0.00472222222222222
18,30.051856,64.55,0.05939,2.25,75.049964,1,21.714783,21.686559,21.682395,21.643298,21.572039,21.562785,21.559314,21.549828,21.558851,21.49129,0.005
19,31.164188,67.025,0.057512,2.375,78.521089,1,21.704372,21.67638,21.684015,21.656947,21.571808,21.552604,21.557463,21.549597,21.549365,21.488513,0.00527777777777778
20,32.371099,69.5,0.060825,2.5,81.975673,1,21.704604,21.680776,21.683089,21.650469,21.565098,21.552604,21.562322,21.543118,21.548903,21.484117,0.00555555555555556
21,33.621252,71.975,0.053979,2.625,85.408753,1,21.709925,21.672679,21.684477,21.665507,21.568337,21.562322,21.556306,21.543118,21.546126,21.482035,0.00583333333333333
22,34.951977,74.45,0.057071,2.75,88.86784,1,21.701134,21.671522,21.692805,21.666201,21.566949,21.558389,21.552836,21.536408,21.557232,21.479027,0.00611111111111111
23,36.362532,76.925,0.06491,2.875,92.312165,1,21.724499,21.674992,21.703447,21.685171,21.586615,21.558389,21.557695,21.552836,21.555381,21.489439,0.00638888888888889
24,37.899573,79.4,0.062702,3,95.738013,1,21.709462,21.670365,21.701596,21.68494,21.575278,21.556306,21.543812,21.537565,21.544506,21.470465,0.00666666666666667
25,39.530296,81.875,0.057512,3.125,99.092997,1,21.721954,21.684246,21.715245,21.702059,21.587309,21.558157,21.556306,21.549365,21.54844,21.471391,0.00694444444444444
26,41.214357,84.35,0.059721,3.25,100,1,21.727506,21.674992,21.730745,21.721029,21.60096,21.563247,21.554918,21.543581,21.555149,21.480184,0.00722222222222222
27,42.923227,86.825,0.059058,3.375,100,1,21.743237,21.687947,21.745319,21.734909,21.603504,21.553761,21.558851,21.543581,21.554918,21.479258,0.0075
28,44.743433,89.3,0.061377,3.5,100,1,21.756191,21.686791,21.761512,21.757579,21.616692,21.562322,21.562322,21.550291,21.554224,21.483192,0.00777777777777778
29,46.775262,91.775,0.059279,3.625,100,1,21.74902,21.668283,21.760818,21.759661,21.612527,21.556075,21.55191,21.536408,21.544506,21.476713,0.00805555555555556
30,48.893672,94.25,0.0595,3.75,100,1,21.764056,21.681007,21.786957,21.785107,21.614841,21.553761,21.546589,21.538954,21.552836,21.484117,0.00833333333333333
31,51.005777,96.725,0.061708,3.875,100,1,21.772615,21.675917,21.794128,21.801993,21.624789,21.557695,21.555844,21.534095,21.543118,21.470697,0.00861111111111111
32,53.238403,99.2,0.060273,4,100,1,21.783487,21.681238,21.825819,21.83831,21.64029,21.561165,21.548903,21.544275,21.54173,21.47116,0.00888888888888889
33,55.541162,101.675,0.064137,4.125,100,1,21.797829,21.682395,21.854733,21.869999,21.653014,21.554687,21.560471,21.538491,21.545895,21.478564,0.00916666666666667
34,58.160532,104.15,0.057292,4.25,100,1,21.806619,21.675455,21.865373,21.883877,21.653708,21.539648,21.550522,21.53155,21.531318,21.468614,0.00944444444444444
35,60.659573,106.625,0.058285,4.375,100,1,21.830214,21.676843,21.908626,21.922966,21.678,21.563479,21.549134,21.531087,21.550291,21.462598,0.00972222222222222
36,63.238629,109.1,0.063806,4.5,100,1,21.839929,21.688179,21.929211,21.971768,21.687716,21.543118,21.550291,21.533401,21.546126,21.463987,0.01
37,65.886526,111.575,0.058727,4.625,100,1,21.868148,21.692805,21.967143,22.007154,21.713626,21.550059,21.550059,21.53155,21.542193,21.464912,0.0102777777777778
38,68.62489,114.05,0.058617,4.75,100,1,21.880176,21.67985,21.996053,22.049477,21.725655,21.545663,21.547052,21.538491,21.541036,21.473473,0.0105555555555556
39,71.308212,116.525,0.0595,4.875,100,1,21.90585,21.695119,22.047627,22.098274,21.749251,21.552142,21.545432,21.53155,21.542887,21.458896,0.0108333333333333
40,74.046046,119,0.05685,5,100,1,21.927824,21.690261,22.072835,22.149612,21.767295,21.541499,21.544044,21.533401,21.539648,21.462367,0.0111111111111111
41,76.91028,121.475,0.056298,5.125,100,1,21.95766,21.699514,22.131343,22.203029,21.801993,21.542424,21.544506,21.536408,21.541036,21.464681,0.0113888888888889
42,80.08258,123.95,0.058506,5.25,100,1,21.97755,21.694888,22.178055,22.256212,21.818879,21.540573,21.535483,21.535483,21.53664,21.462136,0.0116666666666667
43,83.033927,126.425,0.057512,5.375,100,1,22.021956,21.720103,22.237483,22.336676,21.855426,21.550985,21.554224,21.531781,21.541267,21.472779,0.0119444444444444
44,86.039751,128.9,0.05961,5.5,100,1,22.052484,21.711081,22.294133,22.396327,21.893823,21.547283,21.543581,21.532244,21.542193,21.470003,0.0122222222222222
45,89.246046,131.375,0.059721,5.625,100,1,22.108912,21.732595,22.370201,22.475162,21.926204,21.556075,21.559083,21.53155,21.545895,21.475093,0.0125
46,92.488297,133.85,0.063696,5.75,100,1,22.149381,21.743005,22.427076,22.563932,21.983333,21.552142,21.549134,21.534789,21.541267,21.471854,0.0127777777777778
47,95.617055,136.325,0.057181,5.875,100,1,22.194011,21.739073,22.511457,22.63744,22.014555,21.552836,21.559545,21.540573,21.546126,21.473936,0.0130555555555556
48,98.679191,138.8,0.058837,6,100,1,22.233783,21.760124,22.580807,22.735442,22.04994,21.54682,21.553067,21.538259,21.537334,21.466532,0.0133333333333333
49,101.696685,141.275,0.061487,6.125,100,1,22.283034,21.758967,22.6698,22.829508,22.09573,21.544506,21.54335,21.52831,21.541499,21.461904,0.0136111111111111
50,104.836035,143.75,0.063365,6.25,100,1,22.348005,21.786957,22.748386,22.921485,22.147993,21.547052,21.550753,21.519981,21.535483,21.460516,0.0138888888888889
51,108.197845,146.225,0.057512,6.375,100,1,22.399101,21.790196,22.839214,23.037717,22.208579,21.550985,21.55862,21.532012,21.549134,21.471622,0.0141666666666667
52,111.411304,148.7,0.061267,6.5,100,1,22.467071,21.798061,22.936044,23.148623,22.256675,21.544738,21.547052,21.522757,21.540573,21.463292,0.0144444444444444
53,114.682118,151.175,0.057844,6.625,100,1,22.535268,21.817723,23.033558,23.268989,22.324422,21.541961,21.546357,21.526228,21.540805,21.455657,0.0147222222222222
54,117.845398,153.65,0.056298,6.75,100,1,22.600456,21.836922,23.145388,23.389574,22.390547,21.538722,21.548671,21.527848,21.537103,21.46121,0.015
55,121.228003,156.125,0.06204,6.875,100,1,22.684362,21.852188,23.259518,23.511069,22.460829,21.549365,21.545895,21.526228,21.536408,21.466763,0.0152777777777778
56,124.632367,158.6,0.059279,7,100,1,22.754626,21.871387,23.373866,23.648948,22.526021,21.540805,21.541961,21.525303,21.532475,21.465838,0.0155555555555556
57,128.077997,161.075,0.058948,7.125,100,1,22.842681,21.883646,23.490744,23.778728,22.595139,21.539185,21.543118,21.512345,21.534095,21.457971,0.0158333333333333
58,131.160958,163.55,0.055525,7.25,100,1,22.933733,21.912095,23.632782,23.942201,22.685749,21.534326,21.538259,21.522063,21.538491,21.460053,0.0161111111111111
59,134.69161,166.025,0.063585,7.375,100,1,23.027781,21.941701,23.771108,24.110728,22.77404,21.534789,21.542424,21.530161,21.535483,21.466069,0.0163888888888889
60,137.967676,168.5,0.06226,7.5,100,1,23.113735,21.964136,23.906183,24.262842,22.846147,21.527385,21.549597,21.516279,21.538259,21.446401,0.0166666666666667
61,141.392823,170.975,0.062702,7.625,100,1,23.222554,21.987958,24.051862,24.439628,22.952451,21.534557,21.542887,21.516973,21.535714,21.445476,0.0169444444444444
62,145.074131,173.45,0.057512,7.75,100,1,23.334365,22.027507,24.21691,24.621923,23.059206,21.536871,21.54335,21.517899,21.539879,21.457508,0.0172222222222222
63,148.504844,175.925,0.05961,7.875,100,1,23.448014,22.060116,24.372009,24.812953,23.151395,21.526691,21.53502,21.51142,21.531318,21.454037,0.0175
64,151.855172,178.4,0.056077,8,100,1,23.555876,22.086248,24.540932,24.999337,23.260904,21.529699,21.527616,21.515353,21.532012,21.448484,0.0177777777777778
65,155.43752,180.875,0.055856,8.125,100,1,23.690978,22.132962,24.727593,25.204139,23.383106,21.532475,21.544275,21.519981,21.533632,21.459359,0.0180555555555556
66,158.907246,183.35,0.060935,8.25,100,1,23.806668,22.153774,24.893232,25.405212,23.475269,21.515585,21.529005,21.508875,21.524377,21.435526,0.0183333333333333
67,162.11576,185.825,0.06215,8.375,100,1,23.943124,22.208347,25.091364,25.634371,23.618926,21.521369,21.540573,21.509338,21.529005,21.443624,0.0186111111111111
68,165.405509,188.3,0.056519,8.5,100,1,24.088105,22.23887,25.297993,25.860486,23.743398,21.525997,21.539648,21.510726,21.540805,21.44617,0.0188888888888889
69,169.5022,190.775,0.063585,8.625,100,1,24.224296,22.279335,25.496282,26.084249,23.870396,21.50633,21.529236,21.494992,21.528079,21.432518,0.0191666666666667
70,173.353712,193.25,0.058617,8.75,99.742678,1,24.388164,22.335058,25.720351,26.331003,24.016541,21.520906,21.532707,21.506561,21.532938,21.44293,0.0194444444444444
71,177.074877,195.725,0.059831,8.875,99.647252,1,24.538855,22.390084,25.929164,26.583227,24.152048,21.51304,21.532012,21.501008,21.525997,21.439228,0.0197222222222222
72,181.083628,198.2,0.057402,9,99.609321,1,24.704984,22.438866,26.169502,26.849207,24.306695,21.506098,21.528079,21.505173,21.524608,21.444319,0.02
73,184.645837,200.675,0.06226,9.125,99.206583,1,24.874085,22.497587,26.406331,27.118805,24.468705,21.510263,21.525765,21.50471,21.527385,21.443162,0.0202777777777778
74,188.69274,203.15,0.056187,9.25,99.177584,1,25.055846,22.554917,26.638501,27.384652,24.617539,21.498231,21.529005,21.479721,21.529467,21.439691,0.0205555555555556
75,192.535975,205.625,0.06215,9.375,98.590026,1,25.26202,22.63143,26.907922,27.684254,24.80511,21.511883,21.529236,21.502859,21.533863,21.448946,0.0208333333333333
76,196.029463,208.1,0.057181,9.5,98.124465,1,25.422965,22.676503,27.150572,27.967901,24.964969,21.49291,21.524377,21.483886,21.522063,21.432518,0.0211111111111111
77,199.74232,210.575,0.056629,9.625,97.942355,1,25.628839,22.75555,27.439424,28.286884,25.139335,21.505636,21.530393,21.492447,21.522757,21.441773,0.0213888888888889
78,203.352168,213.05,0.053979,9.75,97.478198,1,25.831677,22.822343,27.719685,28.584393,25.326355,21.497074,21.527616,21.493141,21.516973,21.437145,0.0216666666666667
79,207.554118,215.525,0.057292,9.875,97.051142,1,26.054985,22.899993,28.009763,28.928469,25.521873,21.510032,21.530856,21.500314,21.538028,21.447095,0.0219444444444444
80,211.145051,218,0.055525,10,95.95249,1,26.257282,22.979487,28.301371,29.247393,25.713436,21.498694,21.521369,21.494298,21.524146,21.433443,0.0222222222222222
81,215.069678,220.475,0.05696,10.125,95.385885,1,26.488333,23.048808,28.606001,29.587349,25.913032,21.489439,21.519055,21.479721,21.512577,21.430435,0.0225
82,219.04814,222.95,0.061377,10.25,94.414321,1,26.711274,23.147468,28.917209,29.95291,26.131715,21.490364,21.525997,21.494992,21.529005,21.434137,0.0227777777777778
83,222.79624,225.425,0.060383,10.375,93.306892,1,26.961567,23.235953,29.228554,30.303197,26.34805,21.491753,21.52484,21.490133,21.525534,21.431129,0.0230555555555556
84,226.604373,227.9,0.058175,10.5,92.352698,1,27.199602,23.328821,29.5591,30.680211,26.569408,21.485043,21.520444,21.482035,21.527616,21.433212,0.0233333333333333
85,230.728667,230.375,0.057733,10.625,91.266076,1,27.445868,23.419141,29.901253,31.044934,26.801313,21.476944,21.515122,21.477638,21.509106,21.417246,0.0236111111111111
86,234.461891,232.85,0.057733,10.75,89.780448,1,27.727738,23.531394,30.270377,31.456531,27.052736,21.488976,21.524377,21.488513,21.530393,21.431823,0.0238888888888889
87,237.709967,235.325,0.05696,10.875,88.605125,1,27.972271,23.630704,30.607251,31.845508,27.293282,21.483423,21.522757,21.484349,21.508181,21.421179,0.0241666666666667
88,241.655066,237.8,0.057733,11,87.858524,1,28.26113,23.730004,30.972,32.255418,27.534003,21.472779,21.516742,21.472548,21.507949,21.417477,0.0244444444444444
89,245.902739,240.275,0.063917,11.125,86.352592,1,28.536806,23.855619,31.352901,32.683947,27.804807,21.473011,21.52322,21.473936,21.518361,21.41632,0.0247222222222222
90,249.771305,242.75,0.059169,11.25,84.454008,1,28.8262,23.970136,31.736875,33.104978,28.067493,21.466532,21.522989,21.47116,21.513271,21.418865,0.025
91,253.619504,245.225,0.060604,11.375,82.846579,1,29.129761,24.083719,32.13308,33.546207,28.325974,21.473011,21.521832,21.481341,21.51975,21.416783,0.0252777777777778
92,256.884629,247.7,0.062812,11.5,81.182663,1,29.438058,24.220141,32.538757,33.98771,28.610829,21.477407,21.514659,21.468846,21.517667,21.411461,0.0255555555555556
93,260.359246,250.175,0.059279,11.625,80.041728,1,29.757057,24.343161,32.947025,34.451663,28.899283,21.479027,21.519287,21.470928,21.51813,21.416089,0.0258333333333333
94,264.201312,252.65,0.057402,11.75,78.641588,1,30.078485,24.46432,33.37825,34.914502,29.200525,21.487356,21.517436,21.478795,21.511883,21.422568,0.0261111111111111
95,267.833491,255.125,0.060383,11.875,76.808256,1,30.400274,24.619384,33.805412,35.383994,29.492035,21.483886,21.517667,21.478564,21.525534,21.420716,0.0263888888888889
96,271.351226,257.6,0.0595,12,75.114694,1,30.745136,24.767736,34.242463,35.879994,29.798848,21.48458,21.523452,21.485505,21.532475,21.420716,0.0266666666666667
97,275.190174,260.075,0.060715,12.125,73.474467,1,31.078418,24.89969,34.690307,36.370519,30.100293,21.478333,21.515816,21.47463,21.530393,21.417477,0.0269444444444444
98,278.373393,262.55,0.059279,12.25,71.446174,1,31.442546,25.070146,35.14756,36.867894,30.422993,21.474168,21.514428,21.476713,21.531781,21.424419,0.0272222222222222
99,281.055827,265.025,0.060494,12.375,70.01605,1,31.792568,25.220742,35.606217,37.37006,30.756607,21.47787,21.522757,21.478333,21.522989,21.413543,0.0275
100,284.342701,267.5,0.056408,12.5,69.061277,1,32.163093,25.37224,36.070615,37.883393,31.072455,21.481341,21.517436,21.473011,21.522295,21.404519,0.0277777777777778
101,287.056789,269.975,0.05431,12.625,67.47375,1,32.539902,25.534783,36.553068,38.416077,31.417327,21.475093,21.523914,21.460979,21.523452,21.410072,0.0280555555555556
102,290.569197,272.45,0.052654,12.75,66.429814,1,32.9223,25.728188,37.050361,38.960119,31.759794,21.478333,21.523683,21.48458,21.534095,21.418403,0.0283333333333333
103,294.060923,274.925,0.055415,12.875,64.552101,1,33.3128,25.905427,37.526456,39.493659,32.118646,21.480646,21.528542,21.486662,21.536408,21.419791,0.0286111111111111
104,297.518504,277.4,0.058065,13,62.63801,1,33.707045,26.090701,38.034019,40.036046,32.471651,21.477176,21.540342,21.479952,21.531781,21.41632,0.0288888888888889
105,299.839867,279.875,0.058837,13.125,60.702529,1,34.101373,26.275022,38.539301,40.591136,32.841481,21.481572,21.536871,21.483654,21.535714,21.421642,0.0291666666666667
106,302.966126,282.35,0.059279,13.25,59.880239,1,34.518644,26.469906,39.053234,41.162321,33.194475,21.483654,21.54011,21.482497,21.544275,21.427196,0.0294444444444444
107,306.04111,284.825,0.060715,13.375,58.23923,1,34.919757,26.658537,39.568298,41.714148,33.571146,21.481803,21.532475,21.481109,21.54011,21.420485,0.0297222222222222
108,308.58209,287.3,0.055194,13.5,56.614739,1,35.332599,26.856576,40.103372,42.284788,33.96278,21.49129,21.545895,21.49129,21.546126,21.425807,0.03
109,311.121345,289.775,0.059169,13.625,55.505753,1,35.768802,27.063556,40.627056,42.865593,34.354956,21.494067,21.550985,21.495455,21.552836,21.430666,0.0302777777777778
110,313.956736,292.25,0.057844,13.75,54.394876,1,36.193873,27.273027,41.151186,43.436821,34.720019,21.497306,21.532244,21.499851,21.544044,21.427427,0.0305555555555556
111,317.140265,294.725,0.059279,13.875,52.976065,1,36.620148,27.484759,41.701429,44.030226,35.130653,21.493604,21.548671,21.497769,21.552373,21.43298,0.0308333333333333
112,319.72002,297.2,0.056298,14,51.179425,1,37.061992,27.707492,42.245059,44.61587,35.541816,21.503553,21.557926,21.504941,21.562785,21.434137,0.0311111111111111
113,322.265919,299.675,0.062923,14.125,49.963968,1,37.510042,27.925347,42.78776,45.21551,35.938896,21.500314,21.552836,21.496843,21.555149,21.433212,0.0313888888888889
114,324.367623,302.15,0.053979,14.25,48.777487,1,37.957683,28.149367,43.334301,45.796306,36.347926,21.492447,21.55353,21.496612,21.562322,21.42789,0.0316666666666667
115,327.050033,304.625,0.057844,14.375,48.043602,1,38.413571,28.387826,43.892614,46.385894,36.757031,21.49638,21.555844,21.501239,21.561396,21.429047,0.0319444444444444
116,329.86102,307.1,0.060383,14.5,46.733617,1,38.881569,28.639103,44.467898,47.013894,37.183998,21.508875,21.565098,21.503553,21.570651,21.441311,0.0322222222222222
117,332.353847,309.575,0.057512,14.625,45.279962,1,39.3364,28.868488,45.012566,47.608143,37.606241,21.500082,21.557,21.491984,21.565561,21.42627,0.0325
118,334.583132,312.05,0.061487,14.75,44.134639,1,39.812434,29.119881,45.59685,48.21411,38.037209,21.50471,21.564636,21.515353,21.574584,21.441542,0.0327777777777778
119,336.617808,314.525,0.061487,14.875,43.259188,1,40.29077,29.363863,46.159823,48.824556,38.463227,21.504941,21.568569,21.508181,21.570651,21.440154,0.0330555555555556
120,339.20541,317,0.061046,15,42.597403,1,40.758452,29.625703,46.738389,49.434289,38.902517,21.508643,21.566949,21.510726,21.57551,21.43622,0.0333333333333333
121,341.749416,319.475,0.055635,15.125,41.391794,1,41.238897,29.884722,47.302911,50.048956,39.330483,21.508181,21.571345,21.517899,21.568337,21.438302,0.0336111111111111
122,343.324353,321.95,0.054642,15.25,40.224737,1,41.737997,30.145743,47.887088,50.659533,39.788091,21.508875,21.57389,21.519287,21.585227,21.453806,0.0338888888888889
